cycle no.,t_total [s],t_1d_lw [s],t_stn [s],t_0d [s],t_1d_bif [s],t_reg [s],t_out [s]
1,83.32678907364607,16.609407234936953,17.414655059576035,34.5303304977715,5.688204754143953,8.781289648264647,0.30290187895298004
2,149.40939947217703,32.57585970312357,33.672843012958765,57.097083788365126,8.493273790925741,16.961777720600367,0.6085614562034607
3,214.5252576842904,48.506447214633226,49.932591922581196,78.92033381015062,11.285943634808064,24.972163017839193,0.9077780842781067
4,280.06397246569395,64.44753827154636,66.19002815708518,101.05420950427651,14.087474167346954,33.07107636332512,1.2136460021138191
5,346.19680244103074,80.3688836582005,82.43081693351269,123.77999148517847,16.88740148767829,41.21641871333122,1.513290163129568
6,412.4873864725232,96.28785221278667,98.66951667889953,146.6403433457017,19.684721987694502,49.3879576921463,1.8169945552945137
7,479.5280350930989,112.2492224983871,114.94106412306428,169.92855774983764,22.5014458745718,57.78911929577589,2.1186255514621735
8,546.2767133377492,128.18872778490186,131.19027876481414,193.19885350763798,25.304971788078547,65.96965376287699,2.4242277294397354
9,612.7407498918474,144.1105126067996,147.43079510703683,216.42314304038882,28.093541223555803,73.960699159652,2.72205875441432
10,679.5177580565214,160.0658036582172,163.69399821013212,239.68040505051613,30.900533128529787,82.14787181094289,3.029146198183298
11,745.5788605473936,175.98780719190836,179.96547853574157,262.54795179888606,33.68543862551451,90.06455642729998,3.327627968043089
12,811.8779599629343,191.94888005405664,196.23931864276528,285.43696995824575,36.48486464843154,98.13346261531115,3.634464044123888
13,877.9698550589383,207.87987285107374,212.49234145134687,308.04179556667805,39.283576127141714,106.3308999799192,3.9413690827786922
14,944.1832606121898,223.85013822838664,228.77152291685343,330.5790938362479,42.09247278049588,114.63785091042519,4.252181939780712
15,1009.558125898242,239.78618919104338,245.04374565184116,352.6342159546912,44.882708840072155,122.65807380899787,4.55319245159626
16,1075.0373644195497,255.7276772558689,261.28850281983614,374.6127596311271,47.681248497217894,130.86398193985224,4.863194275647402
17,1140.383998323232,271.7018062695861,277.5665434859693,396.18570852279663,50.495160810649395,139.26749766618013,5.1672815680503845
18,1205.2641101628542,287.64289893582463,293.8438426144421,417.6430786177516,53.2915451079607,147.3671673387289,5.475577548146248
19,1269.962268922478,303.60313948243856,310.11405085772276,438.73987888917327,56.10261041671038,155.6242516450584,5.7783376313745975
20,1334.867392346263,319.6113988608122,326.3927944600582,459.89119186624885,58.91994025185704,163.9620367884636,6.0900301188230515
21,1399.0854635424912,335.5690437704325,342.6713999770582,480.73626881465316,61.71320902556181,172.00256408378482,6.392977871000767
22,1463.2644301466644,351.5351065509021,358.9429737627506,501.5378222130239,64.5089085958898,180.03667283058167,6.702946193516254
23,1527.4264058358967,367.4989586547017,375.22895112261176,522.1894154623151,67.3100704587996,188.19133566692472,7.007674470543861
24,1591.312128033489,383.42893857881427,391.50845304504037,542.7628656551242,70.10287289693952,196.19238451123238,7.316613346338272
25,1655.1132567562163,399.3719061240554,407.7767414264381,563.2631282694638,72.89351679757237,204.18711004778743,7.620854090899229
26,1718.8872926831245,415.30778297036886,424.0681482106447,583.7626074776053,75.67875331640244,212.13866243883967,7.931338269263506
27,1783.0795304439962,431.2652622163296,440.33667573332787,604.343478500843,78.4900429546833,220.40837086364627,8.23570017516613
28,1846.8255845606327,447.1673687957227,456.5860485099256,624.8706966899335,81.28139058873057,228.37734125182033,8.54273872449994
29,1910.518847104162,463.0464238859713,472.8006650134921,645.4538129344583,84.07019589096308,236.3008673414588,8.846882037818432
30,1974.3377793766558,478.93607979640365,489.0318840071559,666.067468687892,86.86091446876526,244.28658710047603,9.15484531596303
31,2038.4125958234072,494.83449652791023,505.26739824563265,686.7623945474625,89.66506643593311,252.4258268252015,9.457413241267204
32,2102.148115232587,510.7168330140412,521.4886782951653,707.4149349741638,92.44912268966436,260.3102675676346,9.768278691917658
33,2167.409819815308,526.7725428082049,537.7810765616596,728.3265885934234,95.26982117444277,269.1832889392972,10.076501738280058
34,2231.7049580067396,542.6758660972118,554.0305421091616,749.2210165336728,98.07534930855036,277.31280037388206,10.38938358426094
35,2296.021927908063,558.5997331440449,570.2908877320588,770.182970713824,100.87739779800177,285.3779740855098,10.692964434623718
36,2360.0469824522734,574.4887145683169,586.5423789918423,791.0682389698923,103.66244319826365,293.28063541278243,11.004571311175823
37,2424.2141242437065,590.3924574516714,602.7670748159289,811.9862183332443,106.45665927231312,301.3042231351137,11.307491235435009
38,2488.1029668822885,606.2605695612729,618.9921932630241,832.8799370601773,109.2367543913424,309.1168988980353,11.616613708436489
39,2552.340762063861,622.1506822109222,635.2394384779036,853.8135238103569,112.03422506153584,317.18216132745147,11.92073117569089
40,2616.2259470038116,638.0145424120128,651.4645494744182,874.6950904726982,114.81537415459752,325.00543724000454,12.230953250080347
41,2680.1908922232687,653.8844300173223,667.6711070463061,895.5864402912557,117.6028618812561,332.9107616059482,12.535291381180286
42,2744.3709475398064,669.7760135754943,683.9054845385253,916.5368383303285,120.39864116162062,340.9052619114518,12.848708022385836
43,2808.2816842645407,685.62794803828,700.112135797739,937.3899895213544,123.18485751375556,348.8131953328848,13.153558060526848
44,2872.3174220211804,701.5014172792435,716.3316649980843,958.2748438082635,125.97282887250185,356.7721969932318,13.464470069855452
45,2936.5147387608886,717.3999001942575,732.5711016654968,979.1790814697742,128.76514518633485,364.82940639927983,13.770103845745325
46,3000.5442757345736,733.2646839544177,748.76673463732,1000.0523793362081,131.55735324695706,372.8212520182133,14.081872541457415
47,3064.8234891071916,749.1732203401625,765.0076481997967,1020.9738681800663,134.35747326910496,380.92315935716033,14.388119760900736
48,3129.0102308653295,765.0539217852056,781.2268783338368,1041.867631725967,137.1589648798108,388.999782897532,14.70305124297738
49,3193.2351730577648,780.9324769936502,797.4403667263687,1062.7799976058304,139.96127672865987,397.11099673062563,15.010058272629976
50,3257.6745597198606,796.8740366734564,813.6878385357559,1083.7146589308977,142.76684004068375,405.30584328621626,15.325342252850533
51,3321.9877018108964,812.8118282705545,829.931981433183,1104.629778187722,145.56727294623852,413.4148627817631,15.631978191435337
52,3386.3458170965314,828.7542234957218,846.1996763683856,1125.5397597663105,148.36575546115637,421.53709379956126,15.949308205395937
53,3450.719189159572,844.6864001229405,862.4634388647974,1146.4738877154887,151.16667043045163,429.66929986700416,16.25949215888977
54,3514.9234935864806,860.6277713701129,878.7332335598767,1167.3536788336933,153.9565358310938,437.6734208278358,16.57885316386819
55,3579.3003423139453,876.5845963694155,895.0210760943592,1188.3312685117126,156.75856629759073,445.7111489698291,16.893686071038246
56,3643.7582922652364,892.542823728174,911.289382237941,1209.2722500413656,159.56341134384274,453.87732151150703,17.213103402405977
57,3707.9880406595767,908.4857687652111,927.562599632889,1230.1584130115807,162.3541176468134,461.9030021764338,17.524139426648617
58,3772.1826774962246,924.4115233272314,943.8172879517078,1251.013359811157,165.1364275738597,469.88041676580906,17.923662066459656
59,3820.1254410222173,940.3031980954111,943.830460447818,1272.1983462758362,167.9134602881968,477.6471176594496,18.232858255505562
60,3868.4157836958766,956.2575851865113,943.8437391109765,1293.2002896368504,170.7251316830516,485.83154479041696,18.557493288069963
61,3916.0247394666076,972.1372627019882,943.8566534593701,1314.0581477060914,173.5004056803882,493.60889748483896,18.863372433930635
62,3963.6498206593096,988.0302964262664,943.8693846911192,1334.9206725731492,176.27589640766382,501.37620290741324,19.17736765369773
63,4011.231607671827,1003.9067868106067,943.8821948394179,1355.7784609757364,179.0514060407877,509.12497524544597,19.487783759832382
64,4058.8354987986386,1019.7890970595181,943.8956612162292,1376.5898773260415,181.82800717651844,516.8639087080956,19.868947312235832
